Energy,xx,yy,zz,xy,xz,yz
0.0000,7.7235,7.7235,7.7235,0.2345,0.2345,0.2345
0.0368,7.7239,7.7239,7.7239,0.2345,0.2345,0.2345
0.0735,7.7253,7.7253,7.7253,0.2346,0.2346,0.2346
0.1103,7.7276,7.7276,7.7276,0.2348,0.2348,0.2348
0.1470,7.7309,7.7309,7.7309,0.2350,0.2350,0.2350
0.1838,7.7350,7.7350,7.7350,0.2352,0.2352,0.2352
0.2205,7.7402,7.7402,7.7402,0.2356,0.2356,0.2356
0.2573,7.7462,7.7462,7.7462,0.2359,0.2359,0.2359
0.2940,7.7532,7.7532,7.7532,0.2364,0.2364,0.2364
0.3308,7.7612,7.7612,7.7612,0.2369,0.2369,0.2369
0.3676,7.7702,7.7702,7.7702,0.2375,0.2375,0.2375
0.4043,7.7801,7.7801,7.7801,0.2381,0.2381,0.2381
0.4411,7.7911,7.7911,7.7911,0.2388,0.2388,0.2388
0.4778,7.8031,7.8031,7.8031,0.2396,0.2396,0.2396
0.5146,7.8161,7.8161,7.8161,0.2404,0.2404,0.2404
0.5513,7.8302,7.8302,7.8302,0.2413,0.2413,0.2413
0.5881,7.8453,7.8453,7.8453,0.2422,0.2422,0.2422
0.6248,7.8616,7.8616,7.8616,0.2432,0.2432,0.2432
0.6616,7.8791,7.8791,7.8791,0.2443,0.2443,0.2443
0.6984,7.8976,7.8976,7.8976,0.2455,0.2455,0.2455
0.7351,7.9174,7.9174,7.9174,0.2467,0.2467,0.2467
0.7719,7.9385,7.9385,7.9385,0.2480,0.2480,0.2480
0.8086,7.9608,7.9608,7.9608,0.2494,0.2494,0.2494
0.8454,7.9844,7.9844,7.9844,0.2508,0.2508,0.2508
0.8821,8.0095,8.0095,8.0095,0.2523,0.2523,0.2523
0.9189,8.0359,8.0359,8.0359,0.2539,0.2539,0.2539
0.9556,8.0638,8.0638,8.0638,0.2555,0.2555,0.2555
0.9924,8.0933,8.0933,8.0933,0.2572,0.2572,0.2572
1.0291,8.1245,8.1245,8.1245,0.2590,0.2590,0.2590
1.0659,8.1573,8.1573,8.1573,0.2609,0.2609,0.2609
1.1027,8.1920,8.1920,8.1920,0.2628,0.2628,0.2628
1.1394,8.2285,8.2285,8.2285,0.2649,0.2649,0.2649
1.1762,8.2671,8.2671,8.2671,0.2669,0.2669,0.2669
1.2129,8.3079,8.3079,8.3079,0.2691,0.2691,0.2691
1.2497,8.3510,8.3510,8.3510,0.2713,0.2713,0.2713
1.2864,8.3967,8.3967,8.3967,0.2736,0.2736,0.2736
1.3232,8.4452,8.4452,8.4452,0.2759,0.2759,0.2759
1.3599,8.4968,8.4968,8.4968,0.2782,0.2782,0.2782
1.3967,8.5520,8.5520,8.5520,0.2805,0.2805,0.2805
1.4335,8.6113,8.6113,8.6113,0.2827,0.2827,0.2827
1.4702,8.6761,8.6761,8.6761,0.2847,0.2847,0.2847
1.5070,8.7469,8.7469,8.7469,0.2866,0.2866,0.2866
1.5437,8.8227,8.8227,8.8227,0.2885,0.2885,0.2885
1.5805,8.9023,8.9023,8.9023,0.2908,0.2908,0.2908
1.6172,8.9849,8.9849,8.9849,0.2933,0.2933,0.2933
1.6540,9.0698,9.0698,9.0698,0.2963,0.2963,0.2963
1.6907,9.1564,9.1564,9.1564,0.2997,0.2997,0.2997
1.7275,9.2442,9.2442,9.2442,0.3037,0.3037,0.3037
1.7643,9.3325,9.3325,9.3325,0.3084,0.3084,0.3084
1.8010,9.4207,9.4207,9.4207,0.3140,0.3140,0.3140
1.8378,9.5092,9.5092,9.5092,0.3202,0.3202,0.3202
1.8745,9.5981,9.5981,9.5981,0.3271,0.3271,0.3271
1.9113,9.6876,9.6876,9.6876,0.3346,0.3346,0.3346
1.9480,9.7775,9.7775,9.7775,0.3425,0.3425,0.3425
1.9848,9.8679,9.8679,9.8679,0.3510,0.3510,0.3510
2.0215,9.9587,9.9587,9.9587,0.3600,0.3600,0.3600
2.0583,10.0500,10.0500,10.0500,0.3695,0.3695,0.3695
2.0951,10.1416,10.1416,10.1416,0.3794,0.3794,0.3794
2.1318,10.2334,10.2334,10.2334,0.3896,0.3896,0.3896
2.1686,10.3255,10.3255,10.3255,0.4002,0.4002,0.4002
2.2053,10.4184,10.4184,10.4184,0.4113,0.4113,0.4113
2.2421,10.5126,10.5126,10.5126,0.4231,0.4231,0.4231
2.2788,10.6087,10.6087,10.6087,0.4357,0.4357,0.4357
2.3156,10.7077,10.7077,10.7077,0.4493,0.4493,0.4493
2.3523,10.8102,10.8102,10.8102,0.4640,0.4640,0.4640
2.3891,10.9179,10.9179,10.9179,0.4800,0.4800,0.4800
2.4259,11.0333,11.0333,11.0333,0.4973,0.4973,0.4973
2.4626,11.1574,11.1574,11.1574,0.5166,0.5166,0.5166
2.4994,11.2897,11.2897,11.2897,0.5389,0.5389,0.5389
2.5361,11.4301,11.4301,11.4301,0.5672,0.5672,0.5672
2.5729,11.6030,11.6030,11.6030,0.5917,0.5917,0.5917
2.6096,11.8037,11.8037,11.8037,0.6047,0.6047,0.6047
2.6464,11.9677,11.9677,11.9677,0.6208,0.6208,0.6208
2.6831,12.0552,12.0552,12.0552,0.6560,0.6560,0.6560
2.7199,12.0839,12.0839,12.0839,0.7121,0.7121,0.7121
2.7566,12.1075,12.1075,12.1075,0.7767,0.7767,0.7767
2.7934,12.0780,12.0780,12.0780,0.8713,0.8713,0.8713
2.8302,12.0178,12.0178,12.0178,0.9877,0.9877,0.9877
2.8669,11.9988,11.9988,11.9988,1.0997,1.0997,1.0997
2.9037,11.9680,11.9680,11.9680,1.2285,1.2285,1.2285
2.9404,11.9087,11.9087,11.9087,1.3780,1.3780,1.3780
2.9772,11.8414,11.8414,11.8414,1.5306,1.5306,1.5306
3.0139,11.7849,11.7849,11.7849,1.6723,1.6723,1.6723
3.0507,11.7510,11.7510,11.7510,1.7996,1.7996,1.7996
3.0874,11.7659,11.7659,11.7659,1.9016,1.9016,1.9016
3.1242,11.8361,11.8361,11.8361,1.9767,1.9767,1.9767
3.1610,11.9483,11.9483,11.9483,2.0289,2.0289,2.0289
3.1977,12.1086,12.1086,12.1086,2.0420,2.0420,2.0420
3.2345,12.2713,12.2713,12.2713,1.9891,1.9891,1.9891
3.2712,12.1322,12.1322,12.1322,1.9089,1.9089,1.9089
3.3080,11.6702,11.6702,11.6702,1.7779,1.7779,1.7779
3.3447,11.2203,11.2203,11.2203,1.5502,1.5502,1.5502
3.3815,10.7208,10.7208,10.7208,1.2899,1.2899,1.2899
3.4182,10.0966,10.0966,10.0966,1.0416,1.0416,1.0416
3.4550,9.5147,9.5147,9.5147,0.8331,0.8331,0.8331
3.4918,8.4146,8.4146,8.4146,0.4716,0.4716,0.4716
3.5285,7.1166,7.1166,7.1166,-0.0322,-0.0322,-0.0322
3.5653,7.0564,7.0564,7.0564,-0.2925,-0.2925,-0.2925
3.6020,7.8893,7.8893,7.8893,-0.2458,-0.2458,-0.2458
3.6388,8.5278,8.5278,8.5278,-0.1389,-0.1389,-0.1389
3.6755,8.7842,8.7842,8.7842,-0.0999,-0.0999,-0.0999
3.7123,8.8293,8.8293,8.8293,-0.0751,-0.0751,-0.0751
3.7490,8.8193,8.8193,8.8193,-0.0414,-0.0414,-0.0414
3.7858,8.8115,8.8115,8.8115,-0.0207,-0.0207,-0.0207
3.8226,8.7807,8.7807,8.7807,-0.0240,-0.0240,-0.0240
3.8593,8.6722,8.6722,8.6722,-0.0602,-0.0602,-0.0602
3.8961,8.4919,8.4919,8.4919,-0.1323,-0.1323,-0.1323
3.9328,8.3824,8.3824,8.3824,-0.2126,-0.2126,-0.2126
3.9696,8.4960,8.4960,8.4960,-0.2592,-0.2592,-0.2592
4.0063,8.8834,8.8834,8.8834,-0.2210,-0.2210,-0.2210
4.0431,9.3156,9.3156,9.3156,-0.1635,-0.1635,-0.1635
4.0798,9.3595,9.3595,9.3595,-0.2354,-0.2354,-0.2354
4.1166,9.1774,9.1774,9.1774,-0.3568,-0.3568,-0.3568
4.1534,8.8505,8.8505,8.8505,-0.5860,-0.5860,-0.5860
4.1901,8.3502,8.3502,8.3502,-0.9152,-0.9152,-0.9152
4.2269,7.9421,7.9421,7.9421,-1.1697,-1.1697,-1.1697
4.2636,7.6710,7.6710,7.6710,-1.3488,-1.3488,-1.3488
4.3004,7.6366,7.6366,7.6366,-1.3895,-1.3895,-1.3895
4.3371,7.5291,7.5291,7.5291,-1.5050,-1.5050,-1.5050
4.3739,7.3394,7.3394,7.3394,-1.7251,-1.7251,-1.7251
4.4106,7.2451,7.2451,7.2451,-1.9014,-1.9014,-1.9014
4.4474,7.1386,7.1386,7.1386,-2.0821,-2.0821,-2.0821
4.4841,7.2002,7.2002,7.2002,-2.1855,-2.1855,-2.1855
4.5209,7.0668,7.0668,7.0668,-2.5127,-2.5127,-2.5127
4.5577,7.0287,7.0287,7.0287,-2.7904,-2.7904,-2.7904
4.5944,7.1617,7.1617,7.1617,-2.7735,-2.7735,-2.7735
4.6312,6.9017,6.9017,6.9017,-2.7791,-2.7791,-2.7791
4.6679,6.5219,6.5219,6.5219,-2.6861,-2.6861,-2.6861
4.7047,6.1115,6.1115,6.1115,-2.4965,-2.4965,-2.4965
4.7414,5.5293,5.5293,5.5293,-2.3274,-2.3274,-2.3274
4.7782,5.0873,5.0873,5.0873,-2.2447,-2.2447,-2.2447
4.8149,4.9180,4.9180,4.9180,-2.1763,-2.1763,-2.1763
4.8517,4.4628,4.4628,4.4628,-1.9150,-1.9150,-1.9150
4.8885,3.5117,3.5117,3.5117,-1.3962,-1.3962,-1.3962
4.9252,2.7993,2.7993,2.7993,-0.9487,-0.9487,-0.9487
4.9620,2.6430,2.6430,2.6430,-0.7768,-0.7768,-0.7768
4.9987,2.4507,2.4507,2.4507,-0.7053,-0.7053,-0.7053
5.0355,2.2476,2.2476,2.2476,-0.6720,-0.6720,-0.6720
5.0722,2.0348,2.0348,2.0348,-0.6687,-0.6687,-0.6687
5.1090,1.4950,1.4950,1.4950,-0.6055,-0.6055,-0.6055
5.1457,1.0730,1.0730,1.0730,-0.5563,-0.5563,-0.5563
5.1825,1.1819,1.1819,1.1819,-0.5741,-0.5741,-0.5741
5.2193,1.3466,1.3466,1.3466,-0.7059,-0.7059,-0.7059
5.2560,1.2912,1.2912,1.2912,-0.9239,-0.9239,-0.9239
5.2928,1.4260,1.4260,1.4260,-1.0928,-1.0928,-1.0928
5.3295,1.9425,1.9425,1.9425,-1.2436,-1.2436,-1.2436
5.3663,2.6020,2.6020,2.6020,-1.4004,-1.4004,-1.4004
5.4030,3.2284,3.2284,3.2284,-1.5874,-1.5874,-1.5874
5.4398,3.9047,3.9047,3.9047,-1.8223,-1.8223,-1.8223
5.4765,4.7886,4.7886,4.7886,-2.0836,-2.0836,-2.0836
5.5133,6.0510,6.0510,6.0510,-2.4281,-2.4281,-2.4281
5.5501,6.3733,6.3733,6.3733,-2.3680,-2.3680,-2.3680
5.5868,5.0729,5.0729,5.0729,-1.8637,-1.8637,-1.8637
5.6236,4.0694,4.0694,4.0694,-1.4805,-1.4805,-1.4805
5.6603,3.9776,3.9776,3.9776,-1.2304,-1.2304,-1.2304
5.6971,4.0102,4.0102,4.0102,-1.0311,-1.0311,-1.0311
5.7338,4.0573,4.0573,4.0573,-0.8164,-0.8164,-0.8164
5.7706,3.8309,3.8309,3.8309,-0.6723,-0.6723,-0.6723
5.8073,3.6583,3.6583,3.6583,-0.5184,-0.5184,-0.5184
5.8441,3.7957,3.7957,3.7957,-0.2689,-0.2689,-0.2689
5.8809,3.8891,3.8891,3.8891,-0.0449,-0.0449,-0.0449
5.9176,4.0817,4.0817,4.0817,0.1760,0.1760,0.1760
5.9544,3.0267,3.0267,3.0267,0.5681,0.5681,0.5681
5.9911,0.7382,0.7382,0.7382,0.9661,0.9661,0.9661
6.0279,-1.0540,-1.0540,-1.0540,1.1408,1.1408,1.1408
6.0646,-2.0158,-2.0158,-2.0158,1.1180,1.1180,1.1180
6.1014,-2.0920,-2.0920,-2.0920,0.8639,0.8639,0.8639
6.1381,-1.7097,-1.7097,-1.7097,0.5212,0.5212,0.5212
6.1749,-1.5875,-1.5875,-1.5875,0.1765,0.1765,0.1765
6.2116,-1.4488,-1.4488,-1.4488,-0.0471,-0.0471,-0.0471
6.2484,-1.0192,-1.0192,-1.0192,-0.1255,-0.1255,-0.1255
6.2852,-0.5937,-0.5937,-0.5937,-0.1797,-0.1797,-0.1797
6.3219,-0.2531,-0.2531,-0.2531,-0.2237,-0.2237,-0.2237
6.3587,0.0739,0.0739,0.0739,-0.2721,-0.2721,-0.2721
6.3954,0.4291,0.4291,0.4291,-0.3277,-0.3277,-0.3277
6.4322,0.7392,0.7392,0.7392,-0.3520,-0.3520,-0.3520
6.4689,0.9604,0.9604,0.9604,-0.3024,-0.3024,-0.3024
6.5057,1.1240,1.1240,1.1240,-0.1992,-0.1992,-0.1992
6.5424,1.2207,1.2207,1.2207,-0.1138,-0.1138,-0.1138
6.5792,1.1835,1.1835,1.1835,-0.1118,-0.1118,-0.1118
6.6160,0.9339,0.9339,0.9339,-0.1447,-0.1447,-0.1447
6.6527,0.4863,0.4863,0.4863,-0.2300,-0.2300,-0.2300
6.6895,0.0083,0.0083,0.0083,-0.3921,-0.3921,-0.3921
6.7262,-0.3502,-0.3502,-0.3502,-0.5463,-0.5463,-0.5463
6.7630,-0.5571,-0.5571,-0.5571,-0.6620,-0.6620,-0.6620
6.7997,-0.6394,-0.6394,-0.6394,-0.7520,-0.7520,-0.7520
6.8365,-0.5280,-0.5280,-0.5280,-0.7854,-0.7854,-0.7854
6.8732,-0.3038,-0.3038,-0.3038,-0.7596,-0.7596,-0.7596
6.9100,-0.3083,-0.3083,-0.3083,-0.8399,-0.8399,-0.8399
6.9468,-0.5954,-0.5954,-0.5954,-1.0226,-1.0226,-1.0226
6.9835,-0.6937,-0.6937,-0.6937,-1.0437,-1.0437,-1.0437
7.0203,-0.3830,-0.3830,-0.3830,-0.8622,-0.8622,-0.8622
7.0570,-0.1310,-0.1310,-0.1310,-0.6960,-0.6960,-0.6960
7.0938,-0.1331,-0.1331,-0.1331,-0.6178,-0.6178,-0.6178
7.1305,-0.2759,-0.2759,-0.2759,-0.5302,-0.5302,-0.5302
7.1673,-0.7606,-0.7606,-0.7606,-0.3026,-0.3026,-0.3026
7.2040,-1.2261,-1.2261,-1.2261,-0.1024,-0.1024,-0.1024
7.2408,-1.4746,-1.4746,-1.4746,-0.0588,-0.0588,-0.0588
7.2776,-1.8493,-1.8493,-1.8493,-0.0120,-0.0120,-0.0120
7.3143,-2.1078,-2.1078,-2.1078,0.0728,0.0728,0.0728
7.3511,-2.2071,-2.2071,-2.2071,0.1767,0.1767,0.1767
7.3878,-2.2186,-2.2186,-2.2186,0.2755,0.2755,0.2755
7.4246,-2.0768,-2.0768,-2.0768,0.3617,0.3617,0.3617
7.4613,-1.8839,-1.8839,-1.8839,0.4310,0.4310,0.4310
7.4981,-1.6982,-1.6982,-1.6982,0.4836,0.4836,0.4836
7.5348,-1.6450,-1.6450,-1.6450,0.5162,0.5162,0.5162
7.5716,-1.7746,-1.7746,-1.7746,0.5708,0.5708,0.5708
7.6084,-1.9106,-1.9106,-1.9106,0.6266,0.6266,0.6266
7.6451,-2.0527,-2.0527,-2.0527,0.5800,0.5800,0.5800
7.6819,-2.0632,-2.0632,-2.0632,0.4915,0.4915,0.4915
7.7186,-1.8771,-1.8771,-1.8771,0.4404,0.4404,0.4404
7.7554,-1.7185,-1.7185,-1.7185,0.3970,0.3970,0.3970
7.7921,-1.5878,-1.5878,-1.5878,0.3511,0.3511,0.3511
7.8289,-1.4925,-1.4925,-1.4925,0.3079,0.3079,0.3079
7.8656,-1.4433,-1.4433,-1.4433,0.2673,0.2673,0.2673
7.9024,-1.4197,-1.4197,-1.4197,0.2310,0.2310,0.2310
7.9391,-1.4245,-1.4245,-1.4245,0.2089,0.2089,0.2089
7.9759,-1.4874,-1.4874,-1.4874,0.2009,0.2009,0.2009
8.0127,-1.5624,-1.5624,-1.5624,0.2093,0.2093,0.2093
8.0494,-1.6177,-1.6177,-1.6177,0.2393,0.2393,0.2393
8.0862,-1.6474,-1.6474,-1.6474,0.2858,0.2858,0.2858
8.1229,-1.6444,-1.6444,-1.6444,0.3506,0.3506,0.3506
8.1597,-1.6143,-1.6143,-1.6143,0.4329,0.4329,0.4329
8.1964,-1.5462,-1.5462,-1.5462,0.5136,0.5136,0.5136
8.2332,-1.4543,-1.4543,-1.4543,0.5647,0.5647,0.5647
8.2699,-1.3227,-1.3227,-1.3227,0.5634,0.5634,0.5634
8.3067,-1.2544,-1.2544,-1.2544,0.5706,0.5706,0.5706
8.3435,-1.2159,-1.2159,-1.2159,0.5844,0.5844,0.5844
8.3802,-1.1149,-1.1149,-1.1149,0.5785,0.5785,0.5785
8.4170,-1.0083,-1.0083,-1.0083,0.5874,0.5874,0.5874
8.4537,-0.8823,-0.8823,-0.8823,0.6041,0.6041,0.6041
8.4905,-0.9089,-0.9089,-0.9089,0.5414,0.5414,0.5414
8.5272,-1.0802,-1.0802,-1.0802,0.3908,0.3908,0.3908
8.5640,-1.1974,-1.1974,-1.1974,0.2751,0.2751,0.2751
8.6007,-1.2591,-1.2591,-1.2591,0.2290,0.2290,0.2290
8.6375,-1.3312,-1.3312,-1.3312,0.2158,0.2158,0.2158
8.6743,-1.3718,-1.3718,-1.3718,0.2002,0.2002,0.2002
8.7110,-1.4183,-1.4183,-1.4183,0.2104,0.2104,0.2104
8.7478,-1.5540,-1.5540,-1.5540,0.2526,0.2526,0.2526
8.7845,-1.7267,-1.7267,-1.7267,0.2873,0.2873,0.2873
8.8213,-1.9600,-1.9600,-1.9600,0.2975,0.2975,0.2975
8.8580,-2.2546,-2.2546,-2.2546,0.2787,0.2787,0.2787
8.8948,-2.5564,-2.5564,-2.5564,0.2326,0.2326,0.2326
8.9315,-2.8210,-2.8210,-2.8210,0.1780,0.1780,0.1780
8.9683,-2.9903,-2.9903,-2.9903,0.1284,0.1284,0.1284
9.0051,-3.0661,-3.0661,-3.0661,0.0729,0.0729,0.0729
9.0418,-2.9842,-2.9842,-2.9842,0.0390,0.0390,0.0390
9.0786,-2.7345,-2.7345,-2.7345,0.0370,0.0370,0.0370
9.1153,-2.4718,-2.4718,-2.4718,0.0299,0.0299,0.0299
9.1521,-2.2427,-2.2427,-2.2427,0.0085,0.0085,0.0085
9.1888,-2.0657,-2.0657,-2.0657,-0.0249,-0.0249,-0.0249
9.2256,-2.0538,-2.0538,-2.0538,-0.0537,-0.0537,-0.0537
9.2623,-1.9484,-1.9484,-1.9484,-0.0790,-0.0790,-0.0790
9.2991,-1.7889,-1.7889,-1.7889,-0.1471,-0.1471,-0.1471
9.3359,-1.9029,-1.9029,-1.9029,-0.2297,-0.2297,-0.2297
9.3726,-1.9616,-1.9616,-1.9616,-0.2686,-0.2686,-0.2686
9.4094,-1.9088,-1.9088,-1.9088,-0.2578,-0.2578,-0.2578
9.4461,-1.9375,-1.9375,-1.9375,-0.2127,-0.2127,-0.2127
9.4829,-2.0811,-2.0811,-2.0811,-0.1216,-0.1216,-0.1216
9.5196,-2.2483,-2.2483,-2.2483,-0.0250,-0.0250,-0.0250
9.5564,-2.3218,-2.3218,-2.3218,0.0124,0.0124,0.0124
9.5931,-2.3598,-2.3598,-2.3598,0.0210,0.0210,0.0210
9.6299,-2.3346,-2.3346,-2.3346,0.0206,0.0206,0.0206
9.6666,-2.2554,-2.2554,-2.2554,0.0154,0.0154,0.0154
9.7034,-2.1751,-2.1751,-2.1751,0.0170,0.0170,0.0170
9.7402,-2.1061,-2.1061,-2.1061,0.0274,0.0274,0.0274
9.7769,-2.0345,-2.0345,-2.0345,0.0481,0.0481,0.0481
9.8137,-2.0111,-2.0111,-2.0111,0.1163,0.1163,0.1163
9.8504,-2.0458,-2.0458,-2.0458,0.1975,0.1975,0.1975
9.8872,-2.0448,-2.0448,-2.0448,0.2143,0.2143,0.2143
9.9239,-2.0973,-2.0973,-2.0973,0.1521,0.1521,0.1521
9.9607,-2.1317,-2.1317,-2.1317,0.1039,0.1039,0.1039
9.9974,-2.0866,-2.0866,-2.0866,0.1152,0.1152,0.1152
10.0342,-2.0995,-2.0995,-2.0995,0.1246,0.1246,0.1246
10.0710,-2.1403,-2.1403,-2.1403,0.1316,0.1316,0.1316
10.1077,-2.1199,-2.1199,-2.1199,0.1335,0.1335,0.1335
10.1445,-2.0189,-2.0189,-2.0189,0.1260,0.1260,0.1260
10.1812,-1.9033,-1.9033,-1.9033,0.1127,0.1127,0.1127
10.2180,-1.8129,-1.8129,-1.8129,0.0964,0.0964,0.0964
10.2547,-1.7285,-1.7285,-1.7285,0.0872,0.0872,0.0872
10.2915,-1.6594,-1.6594,-1.6594,0.0919,0.0919,0.0919
10.3282,-1.6550,-1.6550,-1.6550,0.1148,0.1148,0.1148
10.3650,-1.6904,-1.6904,-1.6904,0.1502,0.1502,0.1502
10.4018,-1.7162,-1.7162,-1.7162,0.1906,0.1906,0.1906
10.4385,-1.7747,-1.7747,-1.7747,0.2312,0.2312,0.2312
10.4753,-1.8470,-1.8470,-1.8470,0.2591,0.2591,0.2591
10.5120,-1.8629,-1.8629,-1.8629,0.2719,0.2719,0.2719
10.5488,-1.8370,-1.8370,-1.8370,0.2744,0.2744,0.2744
10.5855,-1.8030,-1.8030,-1.8030,0.2727,0.2727,0.2727
10.6223,-1.7759,-1.7759,-1.7759,0.2708,0.2708,0.2708
10.6590,-1.7706,-1.7706,-1.7706,0.2726,0.2726,0.2726
10.6958,-1.7777,-1.7777,-1.7777,0.2796,0.2796,0.2796
10.7326,-1.7966,-1.7966,-1.7966,0.2862,0.2862,0.2862
10.7693,-1.8325,-1.8325,-1.8325,0.2829,0.2829,0.2829
10.8061,-1.8579,-1.8579,-1.8579,0.2656,0.2656,0.2656
10.8428,-1.8630,-1.8630,-1.8630,0.2385,0.2385,0.2385
10.8796,-1.8522,-1.8522,-1.8522,0.2082,0.2082,0.2082
10.9163,-1.8221,-1.8221,-1.8221,0.1755,0.1755,0.1755
10.9531,-1.7737,-1.7737,-1.7737,0.1582,0.1582,0.1582
10.9898,-1.7253,-1.7253,-1.7253,0.1647,0.1647,0.1647
11.0266,-1.6779,-1.6779,-1.6779,0.1718,0.1718,0.1718
11.0634,-1.6239,-1.6239,-1.6239,0.1694,0.1694,0.1694
11.1001,-1.5810,-1.5810,-1.5810,0.1648,0.1648,0.1648
11.1369,-1.5963,-1.5963,-1.5963,0.1614,0.1614,0.1614
11.1736,-1.6701,-1.6701,-1.6701,0.1497,0.1497,0.1497
11.2104,-1.7499,-1.7499,-1.7499,0.1260,0.1260,0.1260
11.2471,-1.7802,-1.7802,-1.7802,0.1007,0.1007,0.1007
11.2839,-1.7602,-1.7602,-1.7602,0.0743,0.0743,0.0743
11.3206,-1.7271,-1.7271,-1.7271,0.0509,0.0509,0.0509
11.3574,-1.6767,-1.6767,-1.6767,0.0386,0.0386,0.0386
11.3941,-1.6167,-1.6167,-1.6167,0.0326,0.0326,0.0326
11.4309,-1.5602,-1.5602,-1.5602,0.0300,0.0300,0.0300
11.4677,-1.5085,-1.5085,-1.5085,0.0301,0.0301,0.0301
11.5044,-1.4660,-1.4660,-1.4660,0.0309,0.0309,0.0309
11.5412,-1.4524,-1.4524,-1.4524,0.0229,0.0229,0.0229
11.5779,-1.4577,-1.4577,-1.4577,0.0083,0.0083,0.0083
11.6147,-1.4483,-1.4483,-1.4483,0.0034,0.0034,0.0034
11.6514,-1.4269,-1.4269,-1.4269,0.0057,0.0057,0.0057
11.6882,-1.4038,-1.4038,-1.4038,0.0057,0.0057,0.0057
11.7249,-1.3788,-1.3788,-1.3788,0.0028,0.0028,0.0028
11.7617,-1.3658,-1.3658,-1.3658,0.0037,0.0037,0.0037
11.7985,-1.3536,-1.3536,-1.3536,0.0024,0.0024,0.0024
11.8352,-1.3306,-1.3306,-1.3306,-0.0081,-0.0081,-0.0081
11.8720,-1.3011,-1.3011,-1.3011,-0.0138,-0.0138,-0.0138
11.9087,-1.2618,-1.2618,-1.2618,-0.0086,-0.0086,-0.0086
11.9455,-1.2284,-1.2284,-1.2284,0.0033,0.0033,0.0033
11.9822,-1.2170,-1.2170,-1.2170,0.0102,0.0102,0.0102
12.0190,-1.2114,-1.2114,-1.2114,0.0115,0.0115,0.0115
12.0557,-1.2032,-1.2032,-1.2032,0.0142,0.0142,0.0142
12.0925,-1.2119,-1.2119,-1.2119,0.0182,0.0182,0.0182
12.1293,-1.2257,-1.2257,-1.2257,0.0148,0.0148,0.0148
12.1660,-1.2082,-1.2082,-1.2082,0.0116,0.0116,0.0116
12.2028,-1.1669,-1.1669,-1.1669,0.0165,0.0165,0.0165
12.2395,-1.1091,-1.1091,-1.1091,0.0215,0.0215,0.0215
12.2763,-1.0837,-1.0837,-1.0837,0.0237,0.0237,0.0237
12.3130,-1.1061,-1.1061,-1.1061,0.0197,0.0197,0.0197
12.3498,-1.1142,-1.1142,-1.1142,0.0131,0.0131,0.0131
12.3865,-1.1141,-1.1141,-1.1141,0.0085,0.0085,0.0085
12.4233,-1.1142,-1.1142,-1.1142,0.0070,0.0070,0.0070
12.4601,-1.1024,-1.1024,-1.1024,0.0049,0.0049,0.0049
12.4968,-1.0904,-1.0904,-1.0904,0.0018,0.0018,0.0018
12.5336,-1.0937,-1.0937,-1.0937,0.0001,0.0001,0.0001
12.5703,-1.1044,-1.1044,-1.1044,-0.0029,-0.0029,-0.0029
12.6071,-1.1058,-1.1058,-1.1058,-0.0058,-0.0058,-0.0058
12.6438,-1.1026,-1.1026,-1.1026,-0.0072,-0.0072,-0.0072
12.6806,-1.1143,-1.1143,-1.1143,-0.0135,-0.0135,-0.0135
12.7173,-1.1173,-1.1173,-1.1173,-0.0187,-0.0187,-0.0187
12.7541,-1.1077,-1.1077,-1.1077,-0.0166,-0.0166,-0.0166
12.7909,-1.0985,-1.0985,-1.0985,-0.0137,-0.0137,-0.0137
12.8276,-1.0785,-1.0785,-1.0785,-0.0118,-0.0118,-0.0118
12.8644,-1.0513,-1.0513,-1.0513,-0.0108,-0.0108,-0.0108
12.9011,-1.0219,-1.0219,-1.0219,-0.0115,-0.0115,-0.0115
12.9379,-0.9910,-0.9910,-0.9910,-0.0131,-0.0131,-0.0131
12.9746,-0.9637,-0.9637,-0.9637,-0.0158,-0.0158,-0.0158
13.0114,-0.9563,-0.9563,-0.9563,-0.0156,-0.0156,-0.0156
13.0481,-0.9619,-0.9619,-0.9619,-0.0120,-0.0120,-0.0120
13.0849,-0.9636,-0.9636,-0.9636,-0.0089,-0.0089,-0.0089
13.1216,-0.9599,-0.9599,-0.9599,-0.0056,-0.0056,-0.0056
13.1584,-0.9514,-0.9514,-0.9514,-0.0020,-0.0020,-0.0020
13.1952,-0.9448,-0.9448,-0.9448,0.0019,0.0019,0.0019
13.2319,-0.9414,-0.9414,-0.9414,0.0066,0.0066,0.0066
13.2687,-0.9375,-0.9375,-0.9375,0.0107,0.0107,0.0107
13.3054,-0.9305,-0.9305,-0.9305,0.0131,0.0131,0.0131
13.3422,-0.9101,-0.9101,-0.9101,0.0164,0.0164,0.0164
13.3789,-0.8858,-0.8858,-0.8858,0.0202,0.0202,0.0202
13.4157,-0.8683,-0.8683,-0.8683,0.0225,0.0225,0.0225
13.4524,-0.8555,-0.8555,-0.8555,0.0267,0.0267,0.0267
13.4892,-0.8427,-0.8427,-0.8427,0.0331,0.0331,0.0331
13.5260,-0.8200,-0.8200,-0.8200,0.0373,0.0373,0.0373
13.5627,-0.7958,-0.7958,-0.7958,0.0391,0.0391,0.0391
13.5995,-0.7697,-0.7697,-0.7697,0.0413,0.0413,0.0413
13.6362,-0.7413,-0.7413,-0.7413,0.0432,0.0432,0.0432
13.6730,-0.7158,-0.7158,-0.7158,0.0426,0.0426,0.0426
13.7097,-0.6930,-0.6930,-0.6930,0.0398,0.0398,0.0398
13.7465,-0.6752,-0.6752,-0.6752,0.0361,0.0361,0.0361
13.7832,-0.6636,-0.6636,-0.6636,0.0338,0.0338,0.0338
13.8200,-0.6581,-0.6581,-0.6581,0.0330,0.0330,0.0330
13.8568,-0.6819,-0.6819,-0.6819,0.0301,0.0301,0.0301
13.8935,-0.7244,-0.7244,-0.7244,0.0259,0.0259,0.0259
13.9303,-0.7426,-0.7426,-0.7426,0.0253,0.0253,0.0253
13.9670,-0.7342,-0.7342,-0.7342,0.0272,0.0272,0.0272
14.0038,-0.7154,-0.7154,-0.7154,0.0303,0.0303,0.0303
